872
872
869
834
745
732
683
689
733.000000000001
769
756
712
693
692
874.000000000001
869
933
975.999999999999
993
1010
1014
1007
996.000000000002
945
936.999999999998
962
977
969.000000000001
960.999999999999
979.000000000003
997
985.999999999997
975.000000000001
1011
1016
1019
991
946.999999999996
951
971.000000000004
988
958.999999999996
928.000000000004
975.000000000001
981.999999999999
966.999999999999
936.999999999998
941.000000000003
949.999999999996
917.999999999999
868.000000000002
890.000000000001
911.999999999999
939
914.000000000001
951.999999999998
978.000000000002
969.999999999999
936
940.000000000005
943.999999999995
922.000000000004
910.999999999994
913.000000000004
930
924
909.999999999997
918.000000000006
900.999999999996
864.999999999995
899.000000000001
951.000000000008
962.999999999994
924.000000000007
941.999999999993
951.000000000008
941.000000000003
914.999999999992
914.000000000001
930.000000000007
956.999999999994
951.999999999998
966.999999999999
977.000000000004
983.999999999995
957.000000000008
944.000000000003
950.999999999993
948.999999999998
926.000000000002
911.000000000001
912.999999999997
865.000000000009
809.999999999988
802.000000000007
810.999999999993
754.000000000005
768.000000000001
802.000000000007
788.999999999987
809.000000000012
836.999999999989
841.000000000008
860.99999999999
829.000000000008
859.999999999999
879.999999999995
901.00000000001
907.999999999987
888.000000000005
905.000000000001
915.999999999997
945.999999999998
948.000000000008
929.000000000002
941.000000000003
965.999999999994
971.999999999994
942.000000000007
924.999999999997
927.000000000007
947.999999999993
957.000000000008
921.999999999997
908.999999999992
917.000000000002
927.000000000007
882.999999999996
897.000000000006
932.999999999993
954.999999999998
900.000000000006
905.000000000001
915.999999999997
918.999999999997
898.00000000001
889.999999999986
908.000000000001
944.000000000003
942.999999999998
917.000000000016
937.999999999988
950.999999999993
943.000000000012
893.000000000001
893.000000000001
899.000000000001
883.999999999986
843.999999999994
814.000000000021
893.000000000001
951.999999999998
953.999999999979
966.000000000008
957.999999999998
929.000000000002
879.999999999995
873.999999999995
852.000000000004
865.000000000009
870.000000000005
829.000000000008
861.999999999995
881
913.999999999987
925.000000000011
912.999999999982
929.000000000002
926.000000000016
861.999999999995
824.000000000012
839.999999999975
797.000000000025
802.999999999997
832.999999999998
864.999999999981
892.000000000024
881.999999999977
896.000000000015
906.999999999982
926.000000000016
937.999999999988
915.999999999997
924.000000000007
924.000000000007
905.000000000001
869
873.999999999995
887
932.999999999993
915.999999999997
928.000000000026
944.999999999993
965.000000000003
944.999999999993
937.999999999988
932.000000000016
936.999999999983
908.000000000015
901.999999999987
897.00000000002
911.999999999978
876.000000000005
920.999999999992
936.000000000007
944.999999999993
876.000000000005
893.000000000001
924.000000000007
949.000000000012
891.999999999996
870.999999999981
867.000000000019
882.000000000005
905.999999999977
900.000000000006
893.000000000001
909.999999999997
921.999999999997
921.000000000021
927.999999999997
926.999999999992
936.000000000007
901.999999999987
909.999999999997
923.000000000002
921.999999999997
864.000000000004
861.999999999995
831.000000000017
776.999999999987
813.000000000017
736.999999999995
786.000000000001
838.999999999999
897.999999999996
913.999999999987
909.00000000002
897.999999999996
895.999999999987
891.00000000002
901.999999999987
882.000000000005
819.999999999993
795.000000000016
882.999999999981
943.000000000012
966.999999999985
993.000000000023
961.999999999989
942.000000000007
935.999999999979
919.000000000011
918.000000000006
924.000000000007
889.999999999986
848.000000000013
867.999999999995
902.999999999992
915.999999999997
903.999999999996
896.000000000015
909.999999999997
935.000000000002
948.999999999984
953.000000000003
918.000000000006
915.999999999997
908.000000000015
899.000000000001
899.999999999977
898.000000000025
933.999999999997
949.999999999989
941.000000000003
935.000000000002
924.000000000007
917.000000000002
912.999999999982
923.000000000002
871.000000000009
888.999999999982
906.000000000034
906.999999999982
808.999999999969
838.000000000022
855.000000000018
812.000000000012
774.000000000001
804.99999999995
765.000000000043
724.999999999966
741.000000000042
743.999999999971
776.999999999987
819.000000000017
822.000000000003
829.000000000008
863
875.999999999976
883.000000000038
865.999999999985
877.00000000001
877.999999999986
822.999999999979
850.000000000023
861.999999999966
850.999999999999
849.000000000046
868.999999999971
876.000000000033
831.999999999994
830.99999999996
821.000000000026
802.000000000021
739.999999999952
754.999999999995
747.000000000014
766.00000000002
803.999999999974
781.000000000006
852.000000000032
892.999999999972
918.000000000006
901.00000000001
914.999999999964
927.000000000021
910.000000000025
848.99999999999
882.999999999981
869.000000000028
890.999999999963
838.000000000022
870.000000000005
879.999999999995
848.99999999999
833.000000000027
861.999999999966
887
853.000000000009
850.000000000023
875
887.999999999977
853.000000000009
834.000000000003
834.000000000003
841.000000000008
841.999999999985
812.999999999988
836.999999999989
809.000000000026
776.999999999987
740.999999999985
688.000000000045
659.999999999968
656.000000000006
687.000000000012
688.999999999965
686.000000000035
721.99999999998
750
809.000000000026
858.000000000004
824.999999999989
884.999999999991
911.000000000001
858.000000000004
911.000000000001
930.999999999983
963.000000000022
944.000000000017
919.999999999959
927.000000000021
935.000000000002
937.999999999988
916.999999999973
909.000000000049
928.999999999974
944.999999999993
968.999999999994
923.000000000002
935.000000000002
942.000000000007
951.999999999998
915.00000000002
927.999999999997
939.999999999998
918.999999999983
894.000000000005
903.999999999996
925.000000000011
944.000000000017
923.999999999978
954.000000000008
961.999999999989
968.000000000018
930.999999999983
901.999999999987
907.000000000039
928.999999999974
956.000000000017
913.999999999987
930.000000000007
947.000000000003
964.999999999975
927.999999999997
936.000000000035
940.999999999974
944.999999999993
939.999999999998
942.000000000007
956.999999999994
968.000000000018
973.99999999999
930.999999999983
945.00000000005
938.999999999965
949.999999999989
932.000000000016
946.000000000026
955.99999999996
963.000000000022
951.000000000022
943.99999999996
954.000000000008
942.000000000007
925.000000000011
889.00000000001
896.999999999991
920.999999999992
927.999999999997
916.999999999973
915.00000000002
913.999999999987
908.999999999992
873.000000000047
879.999999999995
894.999999999982
905.00000000003
880.999999999972
867.000000000019
866.999999999962
859.000000000037
850.999999999999
808.999999999969
814.999999999998
822.000000000003
836.000000000013
857.000000000028
846.99999999998
872.99999999999
901.00000000001
913.000000000011
887
867.999999999995
865.000000000009
872.99999999999
879.999999999995
858.000000000004
832.99999999997
826.000000000022
827.999999999975
864.000000000033
853.000000000009
866.999999999962
900.000000000034
923.000000000002
918.999999999983
896.000000000015
911.000000000001
916.999999999973
913.999999999987
871.000000000038
855.999999999995
856.999999999971
865.000000000009
860.000000000014
848.000000000013
865.999999999985
889.999999999986
894.000000000005
863
877.999999999986
902.000000000044
888.999999999953
865.000000000009
838.000000000022
858.99999999998
867.999999999995
881.000000000029
860.000000000014
879.999999999995
896.999999999991
891.999999999996
863
800.999999999988
785.000000000025
787.999999999954
814.000000000021
817.999999999984
797.000000000025
839.999999999975
859.000000000037
875
841.000000000008
849.999999999966
859.000000000037
871.999999999957
870.000000000005
819.999999999993
814.000000000021
824.000000000012
855.999999999995
861.999999999966
860.000000000014
836.000000000013
867.000000000019
876.999999999953
878.000000000043
855.999999999995
798.999999999978
730.000000000018
755.999999999972
802.999999999997
783.000000000015
790.00000000002
822.000000000003
851.999999999975
857.000000000028
841.999999999985
867.000000000019
875
906.999999999982
844.99999999997
826.999999999998
841.000000000008
882.000000000005
903.00000000002
839.999999999975
741.000000000042
740.999999999985
877.999999999986
860.99999999999
924.000000000035
938.999999999965
942.000000000007
901.999999999987
889.00000000001
879.999999999995
871.000000000038
897.999999999968
894.999999999982
846.000000000004
818.00000000004
760.999999999967
771.999999999991
797.000000000025
793.999999999983
848.000000000013
891.00000000002
914.999999999964
915.999999999997
939.000000000021
944.000000000017
937.000000000012
905.999999999949
931.00000000004
956.999999999994
949.000000000012
918.000000000006
927.999999999997
959.99999999998
985.99999999999
987.000000000023
952.999999999975
980.000000000018
979.999999999961
931.00000000004
920.999999999935
898.000000000025
814.000000000078
822.000000000003
816.999999999894
874.000000000024
922.000000000025
950.000000000045
908.000000000015
929.99999999995
918.000000000006
879.999999999995
889.999999999986
928.999999999974
950.000000000045
952.999999999975
919.999999999959
927.999999999997
928.000000000111
924.999999999955
915.99999999994
897.000000000048
918.999999999983
930.000000000064
918.999999999983
877.999999999929
917.00000000003
908.000000000015
919.999999999959
888.000000000034
861.999999999966
882.000000000062
889.00000000001
901.99999999993
879.999999999995
902.000000000044
908.000000000015
898.000000000025
841.999999999985
882.999999999925
875
863.000000000056
816.000000000031
824.999999999932
844.000000000051
855.000000000018
871.999999999957
871.999999999957
840.000000000032
837.999999999965
834.00000000006
835.000000000036
841.000000000008
848.999999999933
822.999999999979
817.999999999984
828.000000000088
852.999999999952
884.999999999991
903.999999999996
899.999999999977
906.000000000063
908.999999999992
902.000000000044
894.999999999982
863.999999999919
849.000000000046
815.000000000055
802.999999999997
770.999999999958
785.999999999945
796.000000000049
822.000000000003
842.999999999961
817.000000000007
845.000000000027
850.999999999999
873.000000000047
882.999999999925
853.000000000065
841.999999999985
833.999999999946
835.000000000036
831.000000000017
788.000000000011
786.999999999921
805.000000000064
824.999999999932
849.000000000046
840.000000000032
837.999999999965
836.000000000013
818.99999999996
735.99999999999
693.000000000097
720.99999999989
713.000000000079
692.000000000007
697.000000000003
718.999999999937
754.000000000019
763.000000000034
770.999999999958
771.000000000072
780.999999999949
792.00000000003
793.000000000006
785.999999999945
798.999999999978
834.00000000006
875
861.999999999966
919.999999999959
932.000000000016
946.000000000026
951.999999999998
908.999999999992
909.999999999968
893.000000000029
796.000000000049
805.999999999926
777.000000000044
799.999999999955
889.00000000001
956.999999999994
879.999999999995
934.000000000083
938.999999999965
898.000000000025
829.999999999927
817.000000000007
812.999999999988
795.000000000073
799.999999999955
762.000000000057
776.99999999993
783.999999999992
821.000000000026
860.99999999999
844.000000000051
881.999999999948
899.999999999977
896.000000000072
837.999999999965
869.000000000028
870.000000000005
865.999999999985
845.000000000027
778.00000000002
815.999999999917
826.999999999998
854.000000000042
847.999999999956
845.000000000027
846.000000000004
846.000000000004
808.999999999969
830.000000000041
837.999999999965
835.000000000036
828.999999999951
799.000000000092
846.99999999998
860.99999999999
867.999999999938
816.000000000031
850.000000000023
846.99999999998
841.999999999985
830.000000000041
865.000000000009
863.999999999919
829.000000000065
845.000000000027
839.999999999918
841.000000000008
790.000000000077
795.999999999935
773.000000000025
744.000000000028
696.000000000026
677.999999999997
646.999999999935
643.000000000029
643.000000000029
660.999999999945
662.000000000035
661.999999999921
683.000000000106
705.999999999904
745.000000000005
759.999999999991
760.000000000105
812.999999999988
841.999999999985
848.999999999933
810.000000000059
859.000000000037
887.99999999992
925.000000000068
913.999999999987
871.999999999957
916.000000000054
916.999999999916
927.999999999997
878.000000000043
910.999999999945
924.000000000092
910.999999999945
805.000000000064
823.999999999955
842.999999999961
860.99999999999
882.000000000062
879.000000000019
846.99999999998
846.99999999998
846.99999999998
859.000000000037
865.000000000009
848.999999999933
871.000000000095
858.999999999924
795.000000000073
822.000000000003
778.999999999996
783.000000000015
850.999999999999
870.999999999981
860.99999999999
877.999999999929
884.000000000015
886.000000000081
891.999999999939
855.999999999995
863.000000000056
887.99999999992
920.000000000073
933.999999999969
945.00000000005
957.99999999997
966.999999999985
965.000000000032
932.999999999993
938.999999999965
943.99999999996
944.000000000074
923.000000000002
895.999999999958
903.00000000002
912.000000000035
899.000000000001
846.000000000004
885.999999999967
899.000000000001
918.000000000006
886.999999999944
913.999999999987
924.000000000092
899.000000000001
890.999999999963
903.00000000002
906.999999999925
892.000000000053
884.000000000015
904.999999999973
923.000000000002
924.999999999955
881.000000000085
899.000000000001
889.999999999986
847.999999999956
824.000000000069
831.999999999994
836.000000000013
847.999999999956
814.999999999941
805.000000000064
808.999999999969
822.999999999979
836.999999999989
826.000000000022
815.000000000055
842.999999999961
879.000000000019
905.999999999949
889.00000000001
925.000000000068
937.000000000012
934.999999999945
907.000000000039
901.99999999993
887.000000000057
851.999999999975
775.999999999954
728.000000000065
807.999999999993
847.999999999956
884.999999999991
926.000000000045
936.000000000035
924.999999999955
899.000000000001
921.000000000049
932.000000000016
920.999999999935
876.999999999953
872.000000000071
866.999999999962
865.000000000009
848.00000000007
815.999999999917
767.000000000053
775.999999999954
798.000000000002
837.999999999965
868.000000000052
866.999999999962
863.000000000056
879.000000000019
885.999999999967
890.999999999963
878.000000000043
891.999999999939
901.000000000067
904.999999999973
875.999999999976
888.000000000034
890.999999999963
887.000000000057
865.999999999985
879.000000000019
874.000000000024
828.999999999951
792.00000000003
798.000000000002
740.999999999985
769.000000000005
814.999999999941
860.99999999999
855.999999999995
835.000000000036
849.000000000046
860.99999999999
875
850.999999999999
869.000000000028
897.999999999911
916.000000000054
917.00000000003
867.999999999938
846.000000000004
836.000000000013
856.999999999971
835.000000000036
838.999999999942
854.000000000042
866.999999999962
879.000000000019
858.000000000061
881.999999999948
882.000000000062
838.999999999942
865.999999999985
854.000000000042
862.999999999943
850.000000000023
814.000000000078
831.999999999994
849.999999999909
870.000000000005
848.00000000007
803.999999999974
846.99999999998
887.000000000057
908.000000000015
871.999999999957
802.000000000021
793.999999999983
788.000000000011
778.999999999996
790.99999999994
742.000000000075
745.000000000005
723.999999999933
697.999999999979
692.000000000007
709.00000000006
789.999999999964
906.000000000063
940.999999999917
971.99999999998
928.000000000111
852.999999999952
769.999999999982
861.999999999966
913.000000000011
961.999999999989
985.99999999999
983.000000000061
967.999999999961
942.999999999984
893.000000000029
819.000000000074
768.999999999892
810.000000000059
962.999999999965
990.999999999985
1055.00000000006
1042.00000000003
1019.99999999998
991.999999999962
918.000000000006
822.999999999979
798.999999999978
840.000000000032
922.000000000025
938.999999999965
957.99999999997
946.000000000026
933.999999999969
871.000000000095
849.999999999909
887.000000000057
936.000000000035
962.999999999965
941.000000000031
908.999999999992
860.000000000014
803.999999999974
794.999999999959
820.00000000005
829.999999999927
853.000000000065
859.000000000037
879.999999999995
857.999999999947
846.99999999998
838.000000000079
879.999999999995
911.999999999921
950.000000000045
957.99999999997
901.000000000067
827.999999999975
837.999999999965
844.000000000051
877.999999999929
879.999999999995
846.99999999998
812.000000000012
788.999999999987
829.000000000065
893.000000000029
927.999999999997
949.999999999932
942.999999999984
932.999999999993
897.000000000048
874.000000000024
850.000000000023
865.000000000009
902.999999999906
919.000000000096
839.999999999918
822.000000000003
772.000000000048
730.000000000018
747.999999999934
779.999999999973
776.000000000067
750.999999999976
772.000000000048
793.999999999983
822.999999999979
854.000000000042
861.999999999966
848.999999999933
821.000000000026
824.000000000069
799.999999999955
789.999999999964
796.000000000049
827.999999999975
860.99999999999
864.000000000033
865.000000000009
874.000000000024
866.999999999962
831.000000000017
827.999999999975
849.000000000046
851.999999999975
875
891.999999999939
883.000000000038
884.999999999991
882.000000000062
865.000000000009
857.999999999947
847.999999999956
848.00000000007
836.000000000013
819.999999999936
822.999999999979
817.000000000007
812.999999999988
777.000000000044
731.999999999971
735.000000000014
783.999999999992
809.000000000083
772.999999999911
773.000000000025
787.000000000035
817.999999999984
830.000000000041
800.999999999931
820.00000000005
832.99999999997
851.999999999975
849.000000000046
837.999999999965
827.999999999975
831.999999999994
834.00000000006
806.00000000004
825.999999999908
865.000000000009
893.000000000029
903.999999999996
923.999999999978
867.000000000075
837.999999999965
780.999999999949
725.000000000023
744.000000000028
713.999999999942
722.000000000094
721.000000000004
776.99999999993
813.999999999965
867.000000000075
918.999999999983
931.00000000004
910.999999999945
883.000000000038
862.999999999943
830.000000000041
789.999999999964
782.000000000039
769.999999999982
765.999999999963
740.000000000009
769.000000000005
785.000000000082
831.999999999994
856.999999999971
899.000000000001
947.999999999979
970.000000000027
928.999999999974
947.999999999979
954.000000000065
942.000000000007
872.999999999934
883.000000000038
877.999999999929
831.000000000017
868.000000000052
880.999999999972
880.999999999972
903.999999999996
917.00000000003
903.999999999996
898.000000000025
915.99999999994
915.000000000077
898.000000000025
836.999999999989
844.999999999914
849.000000000046
846.99999999998
826.999999999998
887.000000000057
904.999999999973
913.000000000011
896.999999999935
900.000000000091
882.999999999925
846.99999999998
824.000000000069
769.999999999982
706.000000000017
698.999999999955
675.000000000068
677.999999999997
665.99999999994
666.000000000054
673.999999999864
651.000000000067
662.000000000035
684.999999999945
724.00000000016
790.99999999994
823.999999999842
836.000000000013
876.000000000204
918.999999999869
951.999999999998
961.000000000013
942.000000000007
954.999999999927
948.000000000093
946.999999999889
936.000000000149
971.99999999998
991.999999999962
991.999999999962
952.999999999975
938.000000000102
953.999999999951
968.000000000075
981.999999999971
942.000000000007
963.999999999942
979.000000000042
990.999999999985
949.000000000069
958.999999999833
961.999999999989
942.000000000007
883.000000000038
840.000000000146
813.999999999851
844.000000000051
907.999999999902
841.000000000122
805.000000000064
824.999999999818
848.000000000184
864.000000000033
883.999999999787
879.000000000133
864.000000000033
893.000000000029
916.999999999916
916.999999999916
919.000000000096
857.999999999947
807.999999999993
794.000000000096
836.999999999989
899.999999999864
916.000000000167
836.999999999989
840.999999999894
864.000000000033
874.000000000024
854.000000000042
848.999999999933
864.000000000033
857.999999999947
877.999999999929
907.000000000153
942.999999999984
972.999999999956
951.000000000022
968.000000000075
962.999999999965
932.999999999993
940.000000000055
950.999999999794
965.000000000146
947.999999999865
919.000000000096
940.000000000055
970.000000000027
961.000000000013
918.999999999869
894.999999999982
892.000000000053
866.999999999962
755.000000000109
756.999999999834
762.000000000171
813.999999999851
850.000000000136
823.999999999842
836.999999999989
816.000000000031
800.000000000182
788.999999999987
820.999999999913
855.000000000018
860.999999999876
889.000000000124
914.999999999964
911.000000000058
937.999999999874
957.000000000107
942.000000000007
927.999999999884
927.000000000135
923.999999999978
913.000000000011
855.999999999995
842.999999999847
870.000000000118
909.000000000106
947.999999999865
937.000000000126
971.000000000004
976.999999999862
965.000000000146
945.999999999913
937.999999999874
931.00000000004
940.000000000055
953.999999999951
934.999999999945
944.000000000187
939.999999999827
972.000000000207
952.999999999975
930.999999999813
958.000000000084
943.99999999996
917.000000000144
932.999999999993
932.000000000016
918.999999999869
862.00000000008
803.99999999986
799.000000000206
826.999999999998
877.999999999929
905.999999999949
928.000000000111
894.999999999982
911.999999999807
915.000000000191
887.99999999992
884.999999999991
822.000000000116
825.999999999794
833.000000000084
857.999999999947
872.000000000071
850.999999999885
879.000000000133
896.999999999935
918.00000000012
919.999999999845
898.000000000138
916.999999999916
902.000000000044
885.999999999967
820.999999999913
777.000000000044
745.000000000118
713.999999999942
730.000000000018
809.999999999945
822.000000000116
838.999999999942
881.000000000085
897.999999999911
911.000000000058
867.999999999938
826.999999999998
835.000000000036
847.999999999956
875.999999999976
884.999999999991
833.000000000084
844.000000000051
861.999999999853
880.000000000109
893.000000000029
873.999999999796
895.000000000209
898.999999999887
892.000000000053
820.999999999913
828.999999999951
843.000000000075
883.000000000038
923.999999999978
925.999999999931
863.000000000056
828.999999999951
860.000000000127
889.999999999873
937.000000000126
939.999999999827
929.000000000087
847.999999999956
830.000000000155
841.999999999871
806.00000000004
807.999999999993
818.99999999996
856.999999999971
875.999999999976
891.000000000076
877.999999999929
886.000000000195
898.999999999887
918.00000000012
910.999999999831
872.000000000071
878.999999999905
906.000000000176
943.99999999996
969.000000000051
936.999999999898
930.000000000064
935.999999999922
925.999999999931
913.999999999987
889.000000000124
826.000000000022
761.999999999944
807.999999999993
860.000000000127
921.999999999798
931.00000000004
913.999999999987
871.000000000095
869.999999999891
874.000000000024
878.000000000156
877.999999999929
866.999999999962
851.000000000113
835.999999999785
829.000000000178
860.999999999876
900.000000000091
872.000000000071
923.000000000002
949.999999999818
965.000000000146
952.999999999975
892.000000000053
913.999999999987
887.99999999992
868.999999999915
846.000000000004
794.000000000096
804.000000000087
825.999999999794
843.000000000075
799.999999999955
851.000000000113
883.000000000038
847.999999999956
838.999999999942
862.00000000008
886.999999999944
890.0000000001
873.999999999796
823.000000000093
834.00000000006
817.000000000007
835.000000000036
856.999999999971
849.999999999909
851.000000000113
866.999999999962
869.999999999891
894.000000000005
901.000000000067
884.000000000015
913.000000000011
914.999999999964
935.999999999922
947.000000000116
917.999999999893
869.000000000142
896.999999999935
903.999999999996
903.999999999996
877.999999999929
843.000000000075
839.999999999918
865.000000000009
902.000000000044
893.000000000029
872.000000000071
871.999999999844
862.00000000008
857.999999999947
834.00000000006
797.000000000025
772.999999999911
806.00000000004
855.999999999995
906.999999999925
938.000000000102
890.0000000001
904.999999999973
889.999999999873
883.000000000038
830.999999999904
828.000000000202
831.99999999988
843.000000000075
854.000000000042
836.000000000013
831.99999999988
855.999999999995
865.999999999985
902.000000000044
893.000000000029
886.999999999944
921.000000000049
921.000000000049
928.99999999986
851.000000000113
769.000000000005
714.999999999918
872.000000000071
822.999999999865
816.000000000031
773.000000000138
784.999999999854
813.000000000102
817.999999999984
802.999999999884
786.000000000058
738.000000000056
731.999999999971
704.999999999927
752.00000000018
853.999999999814
894.999999999982
900.000000000091
911.000000000058
895.999999999958
963.999999999942
979.000000000042
928.000000000111
918.999999999869
882.000000000062
827.999999999975
813.000000000102
800.999999999931
777.000000000044
738.999999999805
767.000000000053
778.999999999996
816.000000000031
817.999999999984
856.999999999971
921.000000000049
934.999999999945
930.000000000064
938.000000000102
932.000000000016
925.999999999931
916.999999999916
847.999999999956
878.000000000156
876.999999999953
843.000000000075
875
913.000000000011
926.999999999907
913.000000000011
837.999999999965
842.000000000098
852.999999999838
894.999999999982
850.000000000136
817.000000000007
850.999999999885
864.000000000033
884.999999999991
845.000000000027
848.999999999933
794.000000000096
788.000000000011
751.999999999953
728.000000000065
739.000000000033
765.999999999849
792.000000000144
752.999999999929
777.000000000044
791.999999999916
803.000000000111
794.999999999845
759.999999999991
780.0000000002
817.999999999984
861.999999999853
843.000000000075
855.000000000018
913.000000000011
934.999999999945
951.000000000022
930.000000000064
927.999999999884
901.000000000067
891.000000000076
827.999999999975
807.000000000016
801.999999999907
829.999999999927
792.000000000144
763.999999999896
732.999999999947
780.0000000002
816.99999999978
840.000000000146
854.000000000042
842.999999999847
846.99999999998
858.000000000175
869.999999999891
856.999999999971
865.999999999985
840.000000000146
770.999999999958
786.000000000058
807.000000000016
821.999999999889
861.000000000104
888.999999999896
920.000000000073
905.999999999949
842.000000000098
799.999999999955
808.999999999969
850.999999999885
941.000000000031
997.000000000071
893.000000000029
932.000000000016
951.000000000022
958.999999999833
959.00000000006
918.00000000012
918.999999999869
898.000000000138
891.999999999825
875
871.000000000095
894.999999999982
901.000000000067
906.999999999925
963.999999999942
980.000000000018
980.999999999995
956.000000000131
958.999999999833
956.000000000131
896.999999999935
928.000000000111
916.999999999916
934.999999999945
928.000000000111
831.99999999988
789.999999999964
766.000000000076
750.999999999976
768.000000000029
792.999999999893
822.000000000116
831.99999999988
845.000000000027
846.99999999998
855.000000000018
870.000000000118
894.000000000005
918.999999999869
916.000000000167
924.999999999955
942.000000000007
953.999999999951
942.000000000007
919.000000000096
915.99999999994
912.000000000035
914.999999999964
892.000000000053
885.999999999967
902.000000000044
907.999999999902
951.999999999998
853.000000000065
842.999999999847
841.000000000122
878.999999999905
912.000000000035
915.99999999994
869.000000000142
889.999999999873
917.000000000144
913.000000000011
896.999999999935
854.000000000042
876.999999999953
888.999999999896
900.000000000091
870.000000000118
872.99999999982
917.000000000144
947.999999999865
958.000000000084
920.000000000073
935.999999999922
944.999999999936
957.000000000107
931.00000000004
892.999999999802
919.000000000096
940.000000000055
950.000000000045
905.999999999949
914.999999999964
936.999999999898
958.000000000084
954.999999999927
936.000000000149
937.999999999874
945.000000000164
952.999999999975
897.999999999911
878.999999999905
900.000000000091
936.999999999898
937.000000000126
894.000000000005
925.999999999931
932.000000000016
935.999999999922
899.000000000115
914.999999999964
911.000000000058
937.999999999874
921.000000000049
890.0000000001
918.999999999869
931.00000000004
925.999999999931
895.000000000209
933.999999999969
932.000000000016
936.999999999898
892.000000000053
911.000000000058
928.99999999986
911.000000000058
871.000000000095
871.999999999844
873.000000000047
883.000000000038
855.999999999995
845.000000000027
871.999999999844
897.000000000162
881.999999999834
845.000000000027
855.999999999995
846.99999999998
778.999999999996
767.000000000053
699.000000000069
730.999999999995
719.000000000051
725.999999999885
730.999999999995
739.000000000033
720.000000000027
736.000000000104
744.999999999891
777.000000000044
847.999999999956
847.999999999956
807.999999999993
837.999999999965
865.000000000009
913.999999999987
935.000000000173
930.999999999813
934.000000000196
932.999999999993
923.999999999978
899.999999999864
898.000000000138
894.000000000005
906.999999999925
921.000000000049
897.999999999911
911.000000000058
926.999999999907
937.000000000126
945.999999999913
911.000000000058
916.999999999916
912.000000000035
922.000000000025
884.999999999991
861.000000000104
870.999999999867
880.000000000109
887.99999999992
851.000000000113
868.999999999915
884.000000000015
908.999999999878
855.000000000018
874.000000000024
882.000000000062
878.999999999905
852.000000000089
788.999999999987
730.000000000018
782.999999999902
888.000000000147
858.999999999924
899.000000000115
906.999999999925
885.999999999967
822.000000000116
800.999999999931
792.999999999893
797.000000000025
801.000000000158
756.999999999834
726.000000000113
693.99999999996
725.999999999885
798.000000000002
845.000000000027
875
894.000000000005
890.0000000001
876.999999999953
872.000000000071
865.000000000009
870.999999999867
810.000000000173
833.999999999833
851.000000000113
883.000000000038
894.000000000005
882.999999999811
849.00000000016
867.999999999938
838.999999999942
779.999999999973
760.999999999967
770.000000000209
725.999999999885
730.999999999995
758.000000000038
816.000000000031
873.000000000047
901.999999999816
909.000000000106
884.000000000015
863.000000000056
811.999999999898
807.999999999993
825.000000000045
850.999999999885
832.000000000107
865.999999999985
916.999999999916
951.000000000022
959.00000000006
925.999999999931
925.000000000182
910.999999999831
921.000000000049
884.999999999991
866.999999999962
886.999999999944
900.000000000091
903.00000000002
875.999999999976
899.000000000115
904.999999999973
915.99999999994
897.999999999911
839.000000000169
861.999999999853
868.000000000166
824.999999999818
838.000000000193
865.999999999985
817.000000000007
833.999999999833
884.999999999991
925.000000000182
921.999999999798
870.000000000118
862.00000000008
854.999999999791
864.000000000033
846.99999999998
801.000000000158
774.999999999864
793.00000000012
837.999999999965
894.000000000005
884.999999999991
913.000000000011
923.999999999978
881.000000000085
894.999999999982
891.999999999825
883.000000000038
861.000000000104
869.999999999891
891.000000000076
913.000000000011
916.999999999916
875
908.000000000129
905.999999999949
862.00000000008
801.999999999907
742.999999999938
777.000000000044
824.000000000069
759.000000000015
793.999999999869
831.000000000131
828.999999999951
875.999999999976
923.999999999978
902.000000000044
906.999999999925
884.000000000015
813.000000000102
775.99999999984
772.000000000162
756.999999999834
739.000000000033
720.000000000027
725.000000000136
780.999999999949
820.999999999913
898.000000000138
899.999999999864
953.999999999951
957.000000000107
972.999999999956
947.000000000116
934.999999999945
925.999999999931
909.000000000106
861.999999999853
879.000000000133
890.999999999849
906.000000000176
855.999999999995
897.999999999911
906.999999999925
902.000000000044
849.00000000016
897.999999999911
929.000000000087
877.999999999929
790.99999999994
780.999999999949
791.000000000167
798.000000000002
778.999999999996
730.999999999995
740.999999999985
754.999999999882
796.000000000049
807.000000000016
824.000000000069
853.999999999814
855.000000000018
822.000000000116
849.999999999909
879.000000000133
884.000000000015
872.99999999982
868.000000000166
874.000000000024
786.999999999807
771.000000000186
772.999999999911
768.000000000029
787.000000000035
798.999999999978
834.00000000006
857.999999999947
851.999999999862
841.000000000122
798.999999999978
766.000000000076
715.999999999894
746.000000000095
732.999999999947
732.999999999947
731.999999999971
